 # Umbrella integration analysis
 # Reaction coordinate (RCU), free energy (Hartree)
   3.52500000000000       5.499110627060026E-003
   3.57500000000000       5.089768127318438E-003
   3.62500000000000       4.680425627576848E-003
   3.67500000000000       4.287431576858394E-003
   3.72500000000000       3.894437526139938E-003
   3.77500000000000       3.526892686610620E-003
   3.82500000000000       3.159347847081302E-003
   3.87500000000000       2.824697210975335E-003
   3.92500000000000       2.490046574869367E-003
   3.97500000000000       2.193614213619636E-003
   4.02500000000000       1.897181852369904E-003
   4.07500000000000       1.642346230456910E-003
   4.12500000000000       1.387510608543916E-003
   4.17500000000000       1.176082136820714E-003
   4.22500000000000       9.646536650975120E-004
   4.27500000000000       7.971250696450580E-004
   4.32500000000000       6.295964741926032E-004
   4.37500000000000       5.048963692637545E-004
   4.42500000000000       3.801962643349057E-004
   4.47500000000000       2.947178403231478E-004
   4.52500000000000       2.092394163113898E-004
   4.57500000000000       1.559955492438422E-004
   4.62500000000000       1.027516821762954E-004
   4.67500000000000       7.253841730879996E-005
   4.72500000000000       4.232515244130455E-005
   4.77500000000000       2.667507785022137E-005
   4.82500000000000       1.102500325913820E-005
   4.87500000000000       5.512501629568664E-006
   4.92500000000000       0.000000000000000E+000
   4.97500000000000       9.058156773126755E-006
   5.02500000000000       1.811631354625264E-005
   5.07500000000000       5.584656367355750E-005
   5.12500000000000       9.357681380086323E-005
   5.17500000000000       1.749890938434698E-004
   5.22500000000000       2.564013738860773E-004
   5.27500000000000       3.883216079816690E-004
   5.32500000000000       5.202418420772615E-004
   5.37500000000000       6.977777114549367E-004
   5.42500000000000       8.753135808326120E-004
   5.47500000000000       1.079918668680645E-003
   5.52500000000000       1.284523756528678E-003
   5.57500000000000       1.480646779251043E-003
   5.62500000000000       1.676769801973408E-003
   5.67500000000000       1.811095627815835E-003
   5.72500000000000       1.945421453658263E-003
   5.77500000000000       1.976610070859653E-003
   5.82500000000000       2.007798688061044E-003
   5.87500000000000       1.970669136919918E-003
   5.92500000000000       1.933539585778792E-003
   5.97500000000000       1.913603106244489E-003
   6.02500000000000       1.893666626710185E-003
   6.07500000000000       1.943566014112450E-003
   6.12500000000000       1.993465401514714E-003
   6.17500000000000       2.108742833924067E-003
   6.22500000000000       2.224020266333420E-003
   6.27500000000000       2.357368326559731E-003
   6.32500000000000       2.490716386786042E-003
   6.37500000000000       2.598616054305813E-003
   6.42500000000000       2.706515721825585E-003
   6.47500000000000       2.788262541764877E-003
   6.52500000000000       2.870009361704169E-003
   6.57500000000000       2.943330413805679E-003
   6.62500000000000       3.016651465907189E-003
   6.67500000000000       3.090900944039975E-003
   6.72500000000000       3.165150422172761E-003
   6.77500000000000       3.241930815108825E-003
   6.82500000000000       3.318711208044888E-003
   6.87500000000000       3.396936034197641E-003
   6.92500000000000       3.475160860350394E-003
   6.97500000000000       3.552883781794353E-003
   7.02500000000000       3.630606703238311E-003
   7.07500000000000       3.705397899415511E-003
   7.12500000000000       3.780189095592711E-003
   7.17500000000000       3.849298234623356E-003
   7.22500000000000       3.918407373654002E-003
   7.27500000000000       3.979001973736313E-003
   7.32500000000000       4.039596573818624E-003
   7.37500000000000       4.089065522005090E-003
   7.42500000000000       4.138534470191555E-003
   7.47500000000000       4.174747200500187E-003
   7.52500000000000       4.210959930808819E-003
   7.57500000000000       4.232391060861450E-003
   7.62500000000000       4.253822190914081E-003
   7.67500000000000       4.259605950210626E-003
   7.72500000000000       4.265389709507171E-003
   7.77500000000000       4.255511091383772E-003
   7.82500000000000       4.245632473260374E-003
   7.87500000000000       4.221334457044494E-003
   7.92500000000000       4.197036440828614E-003
   7.97500000000000       4.161137807629004E-003
   8.02500000000000       4.125239174429394E-003
   8.07500000000000       4.081893240126380E-003
   8.12500000000000       4.038547305823366E-003
   8.17500000000000       3.992361731036816E-003
   8.22500000000000       3.946176156250267E-003
   8.27500000000000       3.901125523184047E-003
   8.32500000000000       3.856074890117826E-003
   8.37500000000000       3.814706876732710E-003
   8.42500000000000       3.773338863347594E-003
   8.47500000000000       3.736485173748314E-003
   8.52500000000000       3.699631484149033E-003
   8.57500000000000       3.666663075287969E-003
   8.62500000000000       3.633694666426905E-003
   8.67500000000000       3.603818111995054E-003
   8.72500000000000       3.573941557563202E-003
   8.77500000000000       3.549024563384229E-003
   8.82500000000000       3.524107569205255E-003
   8.87500000000000       3.507766028468923E-003
   8.92500000000000       3.491424487732591E-003
   8.97500000000000       3.462826503112847E-003
   9.02500000000000       3.434228518493104E-003
   9.07500000000000       3.450308508446254E-003
   9.12500000000000       3.466388498399404E-003
   9.17500000000000       3.523872339418188E-003
   9.22500000000000       3.581356180436971E-003
   9.27500000000000       3.628612041929629E-003
   9.32500000000000       3.675867903422286E-003
   9.37500000000000       3.731042960526328E-003
   9.42500000000000       3.786218017630369E-003
   9.47500000000000       3.850675785042146E-003
   9.52500000000000       3.915133552453923E-003
   9.57500000000000       3.990330295219710E-003
   9.62500000000000       4.065527037985496E-003
   9.67500000000000       4.145459096548914E-003
   9.72500000000000       4.225391155112332E-003
   9.77500000000000       4.230162131645099E-003
   9.82500000000000       4.234933108177867E-003
   9.87500000000000       4.366699719699136E-003
   9.92500000000000       4.498466331220407E-003
   9.97500000000000       4.737192627006294E-003
   10.0250000000000       4.975918922792181E-003
   10.0750000000000       5.145322294334767E-003
   10.1250000000000       5.314725665877353E-003
   10.1750000000000       5.497394806385365E-003
   10.2250000000000       5.680063946893377E-003
   10.2750000000000       5.883239341431723E-003
   10.3250000000000       6.086414735970070E-003
   10.3750000000000       6.309980724361593E-003
   10.4250000000000       6.533546712753117E-003
   10.4750000000000       6.777167392866715E-003
   10.5250000000000       7.020788072980314E-003
   10.5750000000000       7.283936502207007E-003
   10.6250000000000       7.547084931433701E-003
   10.6750000000000       7.829013593131113E-003
   10.7250000000000       8.110942254828524E-003
   10.7750000000000       8.410637763983412E-003
   10.8250000000000       8.710333273138299E-003
