 # WHAM analysis
 # Reaction coordinate (RCU), free energy (Hartree)
   4.02500000000000       5.063192258148618E-003
   4.07500000000000       2.065958909306254E-003
   4.12500000000000       1.442063682366425E-003
   4.17500000000000       1.139987866402529E-003
   4.22500000000000       8.195408561267680E-004
   4.27500000000000       5.813495468067570E-004
   4.32500000000000       8.404028417960905E-004
   4.37500000000000       3.212814652382921E-004
   4.42500000000000       2.789277379081025E-004
   4.47500000000000       0.000000000000000E+000
   4.52500000000000       3.367196580218492E-004
   4.57500000000000       1.647869374532988E-004
   4.62500000000000       4.297754318353860E-004
   4.67500000000000       2.897677407966635E-004
   4.72500000000000       4.553359989061789E-004
   4.77500000000000       2.892717046437463E-004
   4.82500000000000       3.873523158018064E-004
   4.87500000000000       2.227069641390023E-004
   4.92500000000000       1.166512754879091E-004
   4.97500000000000       1.694173460807198E-004
   5.02500000000000       4.176643586121428E-004
   5.07500000000000       1.470611601503465E-004
   5.12500000000000       4.794902532513262E-004
   5.17500000000000       5.518651384926828E-004
   5.22500000000000       6.356792576188507E-004
   5.27500000000000       8.501587163817780E-004
   5.32500000000000       9.340535977059478E-004
   5.37500000000000       1.043976245333672E-003
   5.42500000000000       1.402435986746948E-003
   5.47500000000000       1.349198644755046E-003
   5.52500000000000       1.271518370373549E-003
   5.57500000000000       1.358959007548466E-003
   5.62500000000000       1.659212452986770E-003
   5.67500000000000       1.761370106543237E-003
   5.72500000000000       1.415533671553028E-003
   5.77500000000000       1.486423961282337E-003
   5.82500000000000       1.962838604111313E-003
   5.87500000000000       1.923420891731371E-003
   5.92500000000000       1.814746585983020E-003
   5.97500000000000       1.815381091635852E-003
   6.02500000000000       2.186735930073764E-003
   6.07500000000000       2.377620529009353E-003
   6.12500000000000       2.888692903589927E-003
   6.17500000000000       2.923703588048639E-003
   6.22500000000000       2.870077009367649E-003
   6.27500000000000       2.771405722504817E-003
   6.32500000000000       2.873110313068421E-003
   6.37500000000000       2.997325572311959E-003
   6.42500000000000       3.427249663043355E-003
   6.47500000000000       3.188329392002087E-003
   6.52500000000000       3.634633861361301E-003
   6.57500000000000       3.627129535174216E-003
   6.62500000000000       3.241510691886263E-003
   6.67500000000000       3.175178444412971E-003
   6.72500000000000       3.115045286837115E-003
   6.77500000000000       3.290383238108058E-003
   6.82500000000000       3.777610195012198E-003
   6.87500000000000       3.513566449088836E-003
   6.92500000000000       4.146777736241074E-003
   6.97500000000000       4.292431719159201E-003
   7.02500000000000       3.717984079239405E-003
   7.07500000000000       4.155346699036715E-003
   7.12500000000000       3.796583827984088E-003
   7.17500000000000       3.847004812592599E-003
   7.22500000000000       3.705505513733485E-003
   7.27500000000000       3.878868666633909E-003
   7.32500000000000       3.910482636917795E-003
   7.37500000000000       4.099297778721946E-003
   7.42500000000000       5.100656256189957E-003
   7.47500000000000       4.368144381021856E-003
   7.52500000000000       4.674910075223663E-003
   7.57500000000000       4.684499775788947E-003
   7.62500000000000       4.761535938732095E-003
   7.67500000000000       4.889368780729551E-003
   7.72500000000000       4.529646489651857E-003
   7.77500000000000       4.700563874688235E-003
   7.82500000000000       4.901592426430401E-003
   7.87500000000000       4.697121189785312E-003
   7.92500000000000       4.884345900309425E-003
   7.97500000000000       4.612216223574214E-003
   8.02500000000000       4.410408060095403E-003
   8.07500000000000       4.326438181200439E-003
   8.12500000000000       4.431458715799073E-003
   8.17500000000000       4.256240714715724E-003
   8.22500000000000       4.121399810882566E-003
   8.27500000000000       4.205565122187786E-003
   8.32500000000000       4.128960078312052E-003
   8.37500000000000       4.444120649264272E-003
   8.42500000000000       4.409235297087902E-003
   8.47500000000000       4.261516251973154E-003
   8.52500000000000       4.111019866877363E-003
   8.57500000000000       4.091046752132257E-003
   8.62500000000000       4.031783462680980E-003
   8.67500000000000       4.027605358057566E-003
   8.72500000000000       4.170528053340626E-003
   8.77500000000000       4.202591798554362E-003
   8.82500000000000       4.059974624888128E-003
   8.87500000000000       4.402563717088435E-003
   8.92500000000000       4.551595220040157E-003
   8.97500000000000       4.368353300498611E-003
   9.02500000000000       4.188461320476445E-003
   9.07500000000000       3.927615093428194E-003
   9.12500000000000       3.659319560562372E-003
   9.17500000000000       3.731978711963816E-003
   9.22500000000000       4.413859308671001E-003
   9.27500000000000       4.065937748240678E-003
   9.32500000000000       4.664435993368623E-003
   9.37500000000000       4.780273189254614E-003
   9.42500000000000       4.457945057508237E-003
   9.47500000000000       4.820927977962661E-003
   9.52500000000000       4.930509760092718E-003
   9.57500000000000       4.652817729047687E-003
   9.62500000000000       4.926614993238637E-003
   9.67500000000000       4.233938650102380E-003
   9.72500000000000       3.934611992526569E-003
   9.77500000000000       4.067111545346989E-003
   9.82500000000000       4.282426875908299E-003
   9.87500000000000       4.107985357381902E-003
   9.92500000000000       4.447529664456485E-003
   9.97500000000000       4.596331355946589E-003
   10.0250000000000       4.606547214809338E-003
   10.0750000000000       4.853761461706855E-003
   10.1250000000000       5.256519452446994E-003
   10.1750000000000       5.750026799932540E-003
   10.2250000000000       5.908274113634979E-003
