 # Umbrella integration analysis
 # Reaction coordinate (RCU), free energy (Hartree)
   2.51600000000000       5.204989145360487E-003
   2.56240000000000       5.020057567458739E-003
   2.60880000000000       4.835125989556991E-003
   2.65520000000000       4.660380184963466E-003
   2.70160000000000       4.485634380369941E-003
   2.74800000000000       4.321201650556604E-003
   2.79440000000000       4.156768920743268E-003
   2.84080000000000       4.002007357250065E-003
   2.88720000000000       3.847245793756862E-003
   2.93360000000000       3.698483889945126E-003
   2.98000000000000       3.549721986133389E-003
   3.02640000000000       3.394597696719789E-003
   3.07280000000000       3.239473407306188E-003
   3.11920000000000       3.051115503154506E-003
   3.16560000000000       2.862757599002823E-003
   3.21200000000000       2.612917451358278E-003
   3.25840000000000       2.363077303713732E-003
   3.30480000000000       2.059359375014906E-003
   3.35120000000000       1.755641446316080E-003
   3.39760000000000       1.445078952098273E-003
   3.44400000000000       1.134516457880467E-003
   3.49040000000000       8.661359084902323E-004
   3.53680000000000       5.977553590999973E-004
   3.58320000000000       4.038342291275915E-004
   3.62960000000000       2.099130991551849E-004
   3.67600000000000       1.082456345112308E-004
   3.72240000000000       6.578169867275767E-006
   3.76880000000000       3.289084933637450E-006
   3.81520000000000       0.000000000000000E+000
   3.86160000000000       8.694081664240971E-005
   3.90800000000000       1.738816332848203E-004
   3.95440000000000       3.212708627744337E-004
   4.00080000000000       4.686600922640472E-004
   4.04720000000000       6.225398911239403E-004
   4.09360000000000       7.764196899838335E-004
   4.14000000000000       8.870617580586633E-004
   4.18640000000000       9.977038261334932E-004
   4.23280000000000       1.061344918833929E-003
   4.27920000000000       1.124986011534364E-003
   4.32560000000000       1.167756807680101E-003
   4.37200000000000       1.210527603825838E-003
   4.41840000000000       1.251929435072877E-003
   4.46480000000000       1.293331266319916E-003
   4.51120000000000       1.340473065055518E-003
   4.55760000000000       1.387614863791121E-003
   4.60400000000000       1.441685295944817E-003
   4.65040000000000       1.495755728098513E-003
   4.69680000000000       1.556097648444475E-003
   4.74320000000000       1.616439568790437E-003
   4.78960000000000       1.681916254939322E-003
   4.83600000000000       1.747392941088206E-003
   4.88240000000000       1.816739647856383E-003
   4.92880000000000       1.886086354624560E-003
   4.97520000000000       1.958014537100100E-003
   5.02160000000000       2.029942719575640E-003
   5.06800000000000       2.103199171611456E-003
   5.11440000000000       2.176455623647273E-003
   5.16080000000000       2.249869322480323E-003
   5.20720000000000       2.323283021313374E-003
   5.25360000000000       2.395800367135181E-003
   5.30000000000000       2.468317712956988E-003
   5.34640000000000       2.539025683916276E-003
   5.39280000000000       2.609733654875565E-003
   5.43920000000000       2.677873499866097E-003
   5.48560000000000       2.746013344856630E-003
   5.53200000000000       2.810989295751520E-003
   5.57840000000000       2.875965246646411E-003
   5.62480000000000       2.937351836049090E-003
   5.67120000000000       2.998738425451768E-003
   5.71760000000000       3.056285125400128E-003
   5.76400000000000       3.113831825348489E-003
   5.81040000000000       3.167452981370734E-003
   5.85680000000000       3.221074137392978E-003
   5.90320000000000       3.270793732002750E-003
   5.94960000000000       3.320513326612521E-003
   5.99600000000000       3.366311069014812E-003
   6.04240000000000       3.412108811417103E-003
   6.08880000000000       3.453607209618988E-003
   6.13520000000000       3.495105607820872E-003
   6.18160000000000       3.531104186428833E-003
   6.22800000000000       3.567102765036793E-003
   6.27440000000000       3.595192954628199E-003
   6.32080000000000       3.623283144219606E-003
   6.36720000000000       3.640151538427134E-003
   6.41360000000000       3.657019932634663E-003
   6.46000000000000       3.660105652308666E-003
   6.50640000000000       3.663191371982668E-003
   6.55280000000000       3.653237684264974E-003
   6.59920000000000       3.643283996547278E-003
   6.64560000000000       3.625568179676720E-003
   6.69200000000000       3.607852362806161E-003
   6.73840000000000       3.590450068037594E-003
   6.78480000000000       3.573047773269027E-003
   6.83120000000000       3.563555457140351E-003
   6.87760000000000       3.554063141011676E-003
   6.92400000000000       3.557345829216533E-003
   6.97040000000000       3.560628517421391E-003
   7.01680000000000       3.578470440419693E-003
   7.06320000000000       3.596312363417994E-003
   7.10960000000000       3.628386154433038E-003
   7.15600000000000       3.660459945448083E-003
   7.20240000000000       3.705784292576402E-003
   7.24880000000000       3.751108639704721E-003
   7.29520000000000       3.809300111789595E-003
   7.34160000000000       3.867491583874469E-003
   7.38800000000000       3.939323660458939E-003
   7.43440000000000       4.011155737043408E-003
   7.48080000000000       4.098354441755759E-003
   7.52720000000000       4.185553146468108E-003
   7.57360000000000       4.290192978853935E-003
   7.62000000000000       4.394832811239762E-003
   7.66640000000000       4.518797392542914E-003
   7.71280000000000       4.642761973846065E-003
   7.75920000000000       4.787528844043569E-003
   7.80560000000000       4.932295714241073E-003
   7.85200000000000       5.099069919715438E-003
   7.89840000000000       5.265844125189803E-003
   7.94480000000000       5.455896964563726E-003
   7.99120000000000       5.645949803937650E-003
   8.03760000000000       5.860861225811128E-003
   8.08400000000000       6.075772647684606E-003
   8.13040000000000       6.317289392332972E-003
   8.17680000000000       6.558806136981337E-003
   8.22320000000000       6.828419823826116E-003
   8.26960000000000       7.098033510670896E-003
   8.31600000000000       7.396692865189099E-003
   8.36240000000000       7.695352219707302E-003
   8.40880000000000       8.023483838453499E-003
   8.45520000000000       8.351615457199698E-003
   8.50160000000000       8.709298469465481E-003
   8.54800000000000       9.066981481731264E-003
   8.59440000000000       9.454105068566032E-003
   8.64080000000000       9.841228655400804E-003
   8.68720000000000       1.025757693834440E-002
   8.73360000000000       1.067392522128800E-002
   8.78000000000000       1.111919684568276E-002
   8.82640000000000       1.156446847007753E-002
   8.87280000000000       1.203824325514387E-002
   8.91920000000000       1.251201804021021E-002
   8.96560000000000       1.301366481006568E-002
   9.01200000000000       1.351531157992115E-002
   9.05840000000000       1.404380082016487E-002
   9.10480000000000       1.457229006040859E-002
   9.15120000000000       1.512582214268805E-002
   9.19760000000000       1.567935422496751E-002
   9.24400000000000       1.625461244946756E-002
   9.29040000000000       1.682987067396759E-002
