 # WHAM analysis
 # Reaction coordinate (RCU), free energy (Hartree)
   3.16560000000000       5.624136502655524E-003
   3.21200000000000       3.301589729961607E-003
   3.25840000000000       3.512275303424155E-003
   3.30480000000000       3.502674853108231E-003
   3.35120000000000       2.714577003740941E-003
   3.39760000000000       1.887104654250417E-003
   3.44400000000000       1.222147248057879E-003
   3.49040000000000       9.702929755435846E-004
   3.53680000000000       6.746414830712997E-004
   3.58320000000000       4.832019593260585E-004
   3.62960000000000       3.648763036421044E-004
   3.67600000000000       1.266938086631656E-004
   3.72240000000000       3.383520799948275E-005
   3.76880000000000       1.499686600648298E-004
   3.81520000000000       0.000000000000000E+000
   3.86160000000000       3.087464570107794E-005
   3.90800000000000       2.914301396082814E-004
   3.95440000000000       2.456136417417998E-004
   4.00080000000000       3.101896118450381E-004
   4.04720000000000       4.281181871400772E-004
   4.09360000000000       6.520858171941586E-004
   4.14000000000000       8.343660265823747E-004
   4.18640000000000       1.051164424149268E-003
   4.23280000000000       9.148502326419121E-004
   4.27920000000000       1.084559818719977E-003
   4.32560000000000       1.237878250536701E-003
   4.37200000000000       1.439778934169796E-003
   4.41840000000000       1.641633433256129E-003
   4.46480000000000       1.555335273326267E-003
   4.51120000000000       1.627018618585304E-003
   4.55760000000000       2.057385336211060E-003
   4.60400000000000       2.054012678518650E-003
   4.65040000000000       2.028837463999350E-003
   4.69680000000000       1.825358994567555E-003
   4.74320000000000       1.738793002232417E-003
   4.78960000000000       1.793087961912395E-003
   4.83600000000000       1.776224678445931E-003
   4.88240000000000       1.996116758406768E-003
   4.92880000000000       2.194404968332907E-003
   4.97520000000000       2.250799988916726E-003
   5.02160000000000       2.148531327554880E-003
   5.06800000000000       2.478294775162545E-003
   5.11440000000000       2.235470322193944E-003
   5.16080000000000       2.154116451898347E-003
   5.20720000000000       2.140856384323201E-003
   5.25360000000000       2.242000053293824E-003
   5.30000000000000       2.500596852518226E-003
   5.34640000000000       2.352182322851106E-003
   5.39280000000000       2.202226763735474E-003
   5.43920000000000       2.371935450099593E-003
   5.48560000000000       2.355608183496837E-003
   5.53200000000000       2.520608994836636E-003
   5.57840000000000       2.708245642031521E-003
   5.62480000000000       3.019290367700257E-003
   5.67120000000000       2.793131933769282E-003
   5.71760000000000       2.705731024742173E-003
   5.76400000000000       2.684288538511641E-003
   5.81040000000000       3.160950417538175E-003
   5.85680000000000       2.806645050397551E-003
   5.90320000000000       3.006944535043675E-003
   5.94960000000000       3.018717762591085E-003
   5.99600000000000       3.182160958587606E-003
   6.04240000000000       3.435134229253095E-003
   6.08880000000000       3.681646767632576E-003
   6.13520000000000       3.297597986557822E-003
   6.18160000000000       3.610358637411391E-003
   6.22800000000000       3.385628408837461E-003
   6.27440000000000       3.682574623925791E-003
   6.32080000000000       4.353179252336805E-003
   6.36720000000000       4.189628810966821E-003
   6.41360000000000       4.117497530691567E-003
   6.46000000000000       3.809261173814692E-003
   6.50640000000000       3.843632856527309E-003
   6.55280000000000       3.749435363163864E-003
   6.59920000000000       3.708282179771543E-003
   6.64560000000000       3.643556450345529E-003
   6.69200000000000       3.290209574230841E-003
   6.73840000000000       3.338279496364061E-003
   6.78480000000000       3.221415610747962E-003
   6.83120000000000       3.236350973258628E-003
   6.87760000000000       3.127686123129128E-003
   6.92400000000000       3.099627985429398E-003
   6.97040000000000       3.289045268072366E-003
   7.01680000000000       3.022984157497395E-003
   7.06320000000000       3.521676023004103E-003
   7.10960000000000       3.195776435836251E-003
   7.15600000000000       3.207971398425440E-003
   7.20240000000000       3.168763842419774E-003
   7.24880000000000       3.180746769485538E-003
   7.29520000000000       3.242905000032063E-003
   7.34160000000000       3.257341459769178E-003
   7.38800000000000       3.203214862340916E-003
   7.43440000000000       3.562903018587480E-003
   7.48080000000000       3.528578229119257E-003
   7.52720000000000       3.665730404216419E-003
   7.57360000000000       4.022730231535639E-003
   7.62000000000000       4.181131912206896E-003
   7.66640000000000       4.005455125916903E-003
   7.71280000000000       4.624087496998536E-003
   7.75920000000000       4.562543849233820E-003
   7.80560000000000       4.656814028307745E-003
   7.85200000000000       5.282438087087856E-003
   7.89840000000000       5.425188012819756E-003
   7.94480000000000       5.168785127757064E-003
   7.99120000000000       5.692547611698874E-003
   8.03760000000000       5.255467036570443E-003
   8.08400000000000       5.287516391448634E-003
   8.13040000000000       5.808850777677088E-003
   8.17680000000000       6.035265434418399E-003
   8.22320000000000       6.007131262114858E-003
   8.26960000000000       6.080144360031981E-003
   8.31600000000000       6.725737597473492E-003
   8.36240000000000       7.128272799776914E-003
   8.40880000000000       7.292680256656722E-003
   8.45520000000000       8.274795404273503E-003
   8.50160000000000       8.600869235811104E-003
   8.54800000000000       9.235980429635481E-003
   8.59440000000000       1.007934279776961E-002
   8.64080000000000       1.039270879437613E-002
   8.68720000000000       1.072781619413716E-002
   8.73360000000000       1.057568269062102E-002
   8.78000000000000       1.070852864788471E-002
   8.82640000000000       1.074951860974259E-002
   8.87280000000000       1.125906728930433E-002
   8.91920000000000       1.164018920251613E-002
   8.96560000000000       1.167994314941766E-002
   9.01200000000000       1.189497970551319E-002
   9.05840000000000       1.241941877466342E-002
   9.10480000000000       1.324091024280811E-002
   9.15120000000000       1.378210786003088E-002
   9.19760000000000       1.548096839945080E-002
   9.24400000000000       1.602845345021524E-002
   9.29040000000000       1.618315506278175E-002
