 # WHAM analysis
 # Reaction coordinate (RCU), free energy (Hartree)
   4.80466666666667       2.543392489266598E-003
   4.86200000000000       2.752452689952854E-003
   4.91933333333333       2.826867769196580E-003
   4.97666666666667       2.452932960229003E-003
   5.03400000000000       8.987679589698822E-004
   5.09133333333333       7.272806412932608E-004
   5.14866666666667       4.996992095067153E-004
   5.20600000000000       4.863018333109476E-004
   5.26333333333333       1.052624582215437E-004
   5.32066666666667       2.017956782107086E-004
   5.37800000000000       0.000000000000000E+000
   5.43533333333333       2.587733945598582E-004
   5.49266666666667       1.484437185359996E-004
   5.55000000000000       5.656139877313943E-004
   5.60733333333333       8.302851627454608E-004
   5.66466666666667       1.224971312135584E-003
   5.72200000000000       1.657307405884535E-003
   5.77933333333333       1.933359025851228E-003
   5.83666666666667       1.051815547243486E-003
   5.89400000000000       9.961266256881267E-004
   5.95133333333333       1.194966343658254E-003
   6.00866666666667       1.601209573969751E-003
   6.06600000000000       1.834239669664668E-003
   6.12333333333333       2.466644062777325E-003
   6.18066666666667       2.759954912462372E-003
   6.23800000000000       1.951782996819597E-003
   6.29533333333333       1.759087775474590E-003
   6.35266666666667       2.165163494321536E-003
   6.41000000000000       2.416437105429970E-003
   6.46733333333333       2.520898984788443E-003
   6.52466666666667       3.453126892922236E-003
   6.58200000000000       2.998734057566777E-003
   6.63933333333333       2.697697436015302E-003
   6.69666666666667       2.339176018967998E-003
   6.75400000000000       2.732682055187633E-003
   6.81133333333333       2.465449569321528E-003
   6.86866666666667       2.184400232027908E-003
   6.92600000000000       1.943053134531470E-003
   6.98333333333333       1.968643659247806E-003
   7.04066666666667       1.856146311349250E-003
   7.09800000000000       1.987512533834835E-003
   7.15533333333333       2.481141256694254E-003
   7.21266666666667       2.200625773199482E-003
   7.27000000000000       2.259294073532849E-003
   7.32733333333333       2.600884752599541E-003
   7.38466666666667       3.223878923987113E-003
   7.44200000000000       2.735873312268773E-003
   7.49933333333333       2.912415509416700E-003
   7.55666666666667       2.777637386338465E-003
   7.61400000000000       3.313093141692708E-003
   7.67133333333333       3.985184499780919E-003
   7.72866666666667       3.324301577830167E-003
   7.78600000000000       2.958204468497204E-003
   7.84333333333333       2.385525448997599E-003
   7.90066666666667       2.217777722124151E-003
   7.95800000000000       2.999874766522278E-003
   8.01533333333333       3.008950266091233E-003
   8.07266666666667       3.249516562671109E-003
   8.13000000000000       3.567583147990316E-003
   8.18733333333333       3.028204251334232E-003
   8.24466666666667       2.508427511255544E-003
   8.30200000000000       2.411898993537985E-003
   8.35933333333333       2.561211762426244E-003
   8.41666666666667       2.172428469312165E-003
   8.47400000000000       2.283676574910379E-003
   8.53133333333333       2.541086430502478E-003
   8.58866666666667       2.976007616205991E-003
   8.64600000000000       2.392443298492719E-003
   8.70333333333333       2.511656815658577E-003
   8.76066666666667       2.931611715719768E-003
   8.81800000000000       2.953614976391382E-003
   8.87533333333333       3.239306088147553E-003
   8.93266666666667       3.089557960392302E-003
   8.99000000000000       3.047835209067335E-003
   9.04733333333333       2.946745190682615E-003
   9.10466666666667       3.530302417121534E-003
   9.16200000000000       3.232299188464057E-003
   9.21933333333333       3.054152936940072E-003
   9.27666666666667       3.028994596733806E-003
   9.33400000000000       3.882157486947678E-003
   9.39133333333333       3.420462035769916E-003
   9.44866666666667       3.872321114604081E-003
   9.50600000000000       3.486595708432243E-003
   9.56333333333333       3.324346085835675E-003
   9.62066666666667       3.054682805215689E-003
   9.67800000000000       3.536621656866161E-003
   9.73533333333333       4.527002893286533E-003
   9.79266666666667       4.229128071673559E-003
   9.85000000000000       4.477653588599509E-003
   9.90733333333333       3.992875988844434E-003
   9.96466666666667       3.870708146001124E-003
   10.0220000000000       3.166214513631142E-003
   10.0793333333333       3.402970350037028E-003
   10.1366666666667       3.682561967566242E-003
   10.1940000000000       3.753481715207983E-003
   10.2513333333333       3.423603858407613E-003
   10.3086666666667       4.091435800719466E-003
   10.3660000000000       4.136300484799043E-003
   10.4233333333333       3.685663882797567E-003
   10.4806666666667       4.131857587016376E-003
   10.5380000000000       5.234824914902968E-003
   10.5953333333333       4.489058210011138E-003
   10.6526666666667       5.639146526321439E-003
   10.7100000000000       5.088107197047732E-003
   10.7673333333333       4.759861290655597E-003
   10.8246666666667       4.877017698142775E-003
   10.8820000000000       4.572833447884628E-003
   10.9393333333333       3.477306140371855E-003
   10.9966666666667       4.287508077354186E-003
   11.0540000000000       4.617444399554772E-003
   11.1113333333333       4.822963583910969E-003
   11.1686666666667       3.799253889906864E-003
   11.2260000000000       3.789186209781351E-003
   11.2833333333333       5.810801491757786E-003
