 # WHAM analysis
 # Reaction coordinate (RCU), free energy (Hartree)
   5.53600000000000       3.165535981539079E-003
   5.60533333333333       1.957564435752341E-003
   5.67466666666667       1.444972723419477E-003
   5.74400000000000       1.189573582938192E-003
   5.81333333333333       1.342655484276581E-003
   5.88266666666667       1.147747265196064E-003
   5.95200000000000       5.404762242886235E-004
   6.02133333333333       7.829808360909321E-004
   6.09066666666667       6.733242832280169E-004
   6.16000000000000       7.334488474940552E-004
   6.22933333333333       7.298431001853778E-004
   6.29866666666667       9.013086011355285E-004
   6.36800000000000       1.032428734881370E-003
   6.43733333333333       8.226944200972280E-004
   6.50666666666667       8.843969440107012E-004
   6.57600000000000       7.223020158723540E-004
   6.64533333333333       5.686834366356659E-004
   6.71466666666667       5.532098337384262E-004
   6.78400000000000       8.952500240988568E-005
   6.85333333333333       0.000000000000000E+000
   6.92266666666667       9.551237942395912E-005
   6.99200000000000       3.432114259654404E-004
   7.06133333333333       4.097942653867978E-004
   7.13066666666667       7.907033455419065E-004
   7.20000000000000       7.425707987212616E-004
   7.26933333333333       5.420915060636200E-004
   7.33866666666667       4.410296401115648E-004
   7.40800000000000       3.321463891522648E-004
   7.47733333333333       4.982179081410494E-004
   7.54666666666667       7.020870400887658E-004
   7.61600000000000       7.242511798338253E-004
   7.68533333333333       9.473934313460330E-004
   7.75466666666667       1.384380010228065E-003
   7.82400000000000       1.368505581734456E-003
   7.89333333333333       1.289206168998352E-003
   7.96266666666667       1.771201631346742E-003
   8.03200000000000       1.952135150726351E-003
   8.10133333333333       2.101474286574026E-003
   8.17066666666667       1.662789752246452E-003
   8.24000000000000       1.740579143423036E-003
   8.30933333333333       1.918727028121226E-003
   8.37866666666667       2.074137040141871E-003
   8.44800000000000       1.617288670412932E-003
   8.51733333333333       1.827028051380654E-003
   8.58666666666667       1.751228949204211E-003
   8.65600000000000       1.650573200913298E-003
   8.72533333333333       1.418484642627710E-003
   8.79466666666667       1.155372809685278E-003
   8.86400000000000       1.248235293849572E-003
   8.93333333333333       1.381908407949019E-003
   9.00266666666667       1.285083060142897E-003
   9.07200000000000       1.135250309044150E-003
   9.14133333333333       1.156825449697474E-003
   9.21066666666667       9.639426323273452E-004
   9.28000000000000       1.086203175031523E-003
   9.34933333333333       1.009583364578923E-003
   9.41866666666667       1.133400425765113E-003
   9.48800000000000       1.389326649390710E-003
   9.55733333333333       1.452111195261742E-003
   9.62666666666667       1.458395666820383E-003
   9.69600000000000       1.578519493369011E-003
   9.76533333333333       1.709541361941740E-003
   9.83466666666667       1.948385887896038E-003
   9.90400000000000       2.109437484122731E-003
   9.97333333333333       2.282702198238477E-003
   10.0426666666667       2.664419901915585E-003
   10.1120000000000       3.017318452662388E-003
   10.1813333333333       3.159935027159220E-003
   10.2506666666667       3.079561322484307E-003
   10.3200000000000       3.268940601556874E-003
   10.3893333333333       3.592415195613929E-003
   10.4586666666667       3.980801426065648E-003
   10.5280000000000       4.106824792261590E-003
   10.5973333333333       4.296204272344798E-003
   10.6666666666667       4.350814442417878E-003
   10.7360000000000       4.382882601775728E-003
   10.8053333333333       3.976240431241109E-003
   10.8746666666667       4.219378484276072E-003
   10.9440000000000       4.050683204868036E-003
   11.0133333333333       4.091608246208136E-003
   11.0826666666667       4.519438145650477E-003
   11.1520000000000       4.797827079606919E-003
   11.2213333333333       5.036684896185415E-003
   11.2906666666667       5.316598311181359E-003
   11.3600000000000       5.408339318234250E-003
   11.4293333333333       5.934638659123317E-003
   11.4986666666667       6.323602362532981E-003
   11.5680000000000       6.402135187773762E-003
   11.6373333333333       6.810477349941398E-003
   11.7066666666667       6.571653208725168E-003
   11.7760000000000       6.676549618930447E-003
   11.8453333333333       6.588658300448061E-003
   11.9146666666667       6.640554956446516E-003
   11.9840000000000       6.564602844717314E-003
   12.0533333333333       6.710052162401758E-003
   12.1226666666667       6.906833150211284E-003
   12.1920000000000       6.899147662098948E-003
   12.2613333333333       7.394139287159913E-003
   12.3306666666667       7.657076718918436E-003
   12.4000000000000       7.449400365729634E-003
   12.4693333333333       7.926129936271452E-003
   12.5386666666667       8.014488284802231E-003
   12.6080000000000       8.353226972309113E-003
   12.6773333333333       8.623804746356496E-003
   12.7466666666667       8.767544641441090E-003
   12.8160000000000       8.765791362312874E-003
   12.8853333333333       9.126539544019470E-003
   12.9546666666667       9.350825507491375E-003
   13.0240000000000       9.935303440602184E-003
   13.0933333333333       1.021347982625655E-002
   13.1626666666667       1.091492772747576E-002
   13.2320000000000       1.127136244758283E-002
   13.3013333333333       1.135538649934692E-002
   13.3706666666667       1.178452288622351E-002
   13.4400000000000       1.207844101928449E-002
   13.5093333333333       1.244552567496423E-002
   13.5786666666667       1.264225938983974E-002
   13.6480000000000       1.256777302414454E-002
   13.7173333333333       1.299083189055741E-002
   13.7866666666667       1.327532089132420E-002
   13.8560000000000       1.376216132789148E-002
   13.9253333333333       1.467359768239561E-002
   13.9946666666667       1.527411447466533E-002
   14.0640000000000       1.568857835915817E-002
   14.1333333333333       1.594529066550185E-002
   14.2026666666667       1.573467916874395E-002
   14.2720000000000       1.642606014020306E-002
   14.3413333333333       1.691752544060677E-002
   14.4106666666667       1.726434877965554E-002
   14.4800000000000       1.669897487072831E-002
   14.5493333333333       1.728046804520599E-002
   14.6186666666667       1.703751369645524E-002
   14.6880000000000       1.729433056332486E-002
   14.7573333333333       1.739587222365674E-002
   14.8266666666667       1.767730836964630E-002
   14.8960000000000       1.756008262278880E-002
   14.9653333333333       1.769211408802310E-002
