 # Umbrella integration analysis
 # Reaction coordinate (RCU), free energy (Hartree)
   4.59333333333333       3.340145043907589E-003
   4.67066666666667       3.045905291947127E-003
   4.74800000000000       2.751665539986664E-003
   4.82533333333333       2.474490953487641E-003
   4.90266666666667       2.197316366988617E-003
   4.98000000000000       1.945438530035392E-003
   5.05733333333333       1.693560693082167E-003
   5.13466666666667       1.472730601620913E-003
   5.21200000000000       1.251900510159659E-003
   5.28933333333333       1.065729439810790E-003
   5.36666666666667       8.795583694619206E-004
   5.44400000000000       7.214229818355367E-004
   5.52133333333333       5.632875942091528E-004
   5.59866666666667       3.533751589191447E-004
   5.67600000000000       1.434627236291371E-004
   5.75333333333333       1.574091281049640E-004
   5.83066666666667       1.713555325807904E-004
   5.90800000000000       1.229563957291062E-004
   5.98533333333333       7.455725887742150E-005
   6.06266666666667       3.727862943871075E-005
   6.14000000000000       0.000000000000000E+000
   6.21733333333333       2.927482603129472E-005
   6.29466666666667       5.854965206258987E-005
   6.37200000000000       1.444063631663075E-004
   6.44933333333333       2.302630742700251E-004
   6.52666666666667       3.481569668772415E-004
   6.60400000000000       4.660508594844580E-004
   6.68133333333333       5.816910113559223E-004
   6.75866666666667       6.973311632273867E-004
   6.83600000000000       7.842024548764771E-004
   6.91333333333333       8.710737465255670E-004
   6.99066666666667       9.286822652888635E-004
   7.06800000000000       9.862907840521599E-004
   7.14533333333333       1.029943215526497E-003
   7.22266666666667       1.073595647000834E-003
   7.30000000000000       1.122546230042687E-003
   7.37733333333333       1.171496813084539E-003
   7.45466666666667       1.242377440067430E-003
   7.53200000000000       1.313258067050320E-003
   7.60933333333333       1.414836685168772E-003
   7.68666666666667       1.516415303287223E-003
   7.76400000000000       1.646706951491837E-003
   7.84133333333333       1.776998599696451E-003
   7.91866666666667       1.916258258169781E-003
   7.99600000000000       2.055517916643112E-003
   8.07333333333333       2.137660646873017E-003
   8.15066666666667       2.219803377102922E-003
   8.22800000000000       2.187839805575408E-003
   8.30533333333333       2.155876234047892E-003
   8.38266666666667       2.126927712553523E-003
   8.46000000000000       2.097979191059154E-003
   8.53733333333333       2.131151997407943E-003
   8.61466666666667       2.164324803756733E-003
   8.69200000000000       2.199390913334690E-003
   8.76933333333333       2.234457022912648E-003
   8.84666666666667       2.185245741845882E-003
   8.92400000000000       2.136034460779116E-003
   9.00133333333333       2.236958550555727E-003
   9.07866666666667       2.337882640332339E-003
   9.15600000000000       2.377613699531820E-003
   9.23333333333333       2.417344758731301E-003
   9.31066666666667       2.540214360000936E-003
   9.38800000000000       2.663083961270571E-003
   9.46533333333333       2.915747009097212E-003
   9.54266666666667       3.168410056923854E-003
   9.62000000000000       3.365836646989312E-003
   9.69733333333333       3.563263237054772E-003
   9.77466666666667       3.613476565122667E-003
   9.85200000000000       3.663689893190563E-003
   9.92933333333333       3.698751576277103E-003
   10.0066666666667       3.733813259363642E-003
   10.0840000000000       3.808815340275715E-003
   10.1613333333333       3.883817421187787E-003
   10.2386666666667       3.986974770480856E-003
   10.3160000000000       4.090132119773925E-003
   10.3933333333333       4.198606726701527E-003
   10.4706666666667       4.307081333629129E-003
   10.5480000000000       4.405231825421432E-003
   10.6253333333333       4.503382317213734E-003
   10.7026666666667       4.600267078647981E-003
   10.7800000000000       4.697151840082229E-003
   10.8573333333333       4.810929256255485E-003
   10.9346666666667       4.924706672428741E-003
   11.0120000000000       5.067760078196114E-003
   11.0893333333333       5.210813483963486E-003
   11.1666666666667       5.431416240627975E-003
   11.2440000000000       5.652018997292464E-003
   11.3213333333333       5.866477372035513E-003
   11.3986666666667       6.080935746778562E-003
   11.4760000000000       6.264717440326150E-003
   11.5533333333333       6.448499133873738E-003
   11.6306666666667       6.613462977222103E-003
   11.7080000000000       6.778426820570468E-003
   11.7853333333333       6.936096933335362E-003
   11.8626666666667       7.093767046100256E-003
   11.9400000000000       7.251302433422031E-003
   12.0173333333333       7.408837820743806E-003
   12.0946666666667       7.563792578316554E-003
   12.1720000000000       7.718747335889302E-003
   12.2493333333333       7.869119521787440E-003
   12.3266666666667       8.019491707685577E-003
   12.4040000000000       8.166984455193694E-003
   12.4813333333333       8.314477202701811E-003
   12.5586666666667       8.459112412163815E-003
   12.6360000000000       8.603747621625820E-003
   12.7133333333333       8.739970163496490E-003
   12.7906666666667       8.876192705367162E-003
   12.8680000000000       8.996612040872876E-003
   12.9453333333333       9.117031376378589E-003
   13.0226666666667       9.224505370887814E-003
   13.1000000000000       9.331979365397040E-003
   13.1773333333333       9.443515349108093E-003
   13.2546666666667       9.555051332819149E-003
   13.3320000000000       9.687521169712500E-003
   13.4093333333333       9.819991006605851E-003
   13.4866666666667       9.976568943745863E-003
   13.5640000000000       1.013314688088587E-002
   13.6413333333333       1.029866592543343E-002
   13.7186666666667       1.046418496998099E-002
   13.7960000000000       1.059874238912812E-002
   13.8733333333333       1.073329980827526E-002
   13.9506666666667       1.076271628319167E-002
   14.0280000000000       1.079213275810808E-002
   14.1053333333333       1.086277185497098E-002
   14.1826666666667       1.093341095183389E-002
   14.2600000000000       1.094515851324838E-002
   14.3373333333333       1.095690607466287E-002
   14.4146666666667       1.097356356815243E-002
   14.4920000000000       1.099022106164200E-002
   14.5693333333333       1.110480607468968E-002
   14.6466666666667       1.121939108773737E-002
   14.7240000000000       1.136212113956665E-002
   14.8013333333333       1.150485119139594E-002
   14.8786666666667       1.169055234636665E-002
   14.9560000000000       1.187625350133736E-002
   15.0333333333333       1.211339508434044E-002
   15.1106666666667       1.235053666734351E-002
   15.1880000000000       1.265798572767319E-002
   15.2653333333333       1.296543478800286E-002
   15.3426666666667       1.334210626319728E-002
   15.4200000000000       1.371877773839171E-002
   15.4973333333333       1.413602025334414E-002
   15.5746666666667       1.455326276829656E-002
   15.6520000000000       1.493533026715373E-002
   15.7293333333333       1.531739776601090E-002
   15.8066666666667       1.557418052989275E-002
   15.8840000000000       1.583096329377460E-002
