 # WHAM analysis
 # Reaction coordinate (RCU), free energy (Hartree)
   5.13466666666667       1.948279043410417E-003
   5.21200000000000       1.897119635326320E-003
   5.28933333333333       1.607288379603084E-003
   5.36666666666667       1.018920399035565E-003
   5.44400000000000       1.289598136250967E-003
   5.52133333333333       5.590984117878730E-004
   5.59866666666667       5.463526565350706E-004
   5.67600000000000       1.046204404629507E-003
   5.75333333333333       4.858703306920204E-004
   5.83066666666667       1.376587302758712E-004
   5.90800000000000       0.000000000000000E+000
   5.98533333333333       3.525699497940516E-004
   6.06266666666667       3.920870187696344E-004
   6.14000000000000       6.462303552924628E-004
   6.21733333333333       6.556267409231226E-004
   6.29466666666667       5.673952011677362E-004
   6.37200000000000       9.677121850669218E-004
   6.44933333333333       9.511508657646761E-004
   6.52666666666667       1.271557208535710E-003
   6.60400000000000       1.330062506196131E-003
   6.68133333333333       1.060397463113752E-003
   6.75866666666667       1.254778877284421E-003
   6.83600000000000       1.575851898149434E-003
   6.91333333333333       1.603647072728142E-003
   6.99066666666667       1.397083251993368E-003
   7.06800000000000       1.062332281982386E-003
   7.14533333333333       1.340611754508342E-003
   7.22266666666667       1.424913579832308E-003
   7.30000000000000       1.587208514251753E-003
   7.37733333333333       2.230702762497359E-003
   7.45466666666667       2.102120749385650E-003
   7.53200000000000       2.114819861477618E-003
   7.60933333333333       2.562971212847676E-003
   7.68666666666667       2.566119101699096E-003
   7.76400000000000       2.293503010333576E-003
   7.84133333333333       2.529611409695042E-003
   7.91866666666667       2.855580203093401E-003
   7.99600000000000       2.935719798731040E-003
   8.07333333333333       3.103029703525680E-003
   8.15066666666667       3.511298045726672E-003
   8.22800000000000       3.454267209642805E-003
   8.30533333333333       2.746082101657430E-003
   8.38266666666667       2.253262469503289E-003
   8.46000000000000       2.496590084759601E-003
   8.53733333333333       2.725162027027815E-003
   8.61466666666667       3.137775614511152E-003
   8.69200000000000       3.140292676165333E-003
   8.76933333333333       3.347896726472838E-003
   8.84666666666667       2.962350951548678E-003
   8.92400000000000       3.024189715804065E-003
   9.00133333333333       3.641679299648689E-003
   9.07866666666667       3.316685562535311E-003
   9.15600000000000       2.943495343209869E-003
   9.23333333333333       3.214230115054726E-003
   9.31066666666667       3.143523530594730E-003
   9.38800000000000       3.514710760713640E-003
   9.46533333333333       4.363171221491945E-003
   9.54266666666667       4.562279831296905E-003
   9.62000000000000       4.282560351738078E-003
   9.69733333333333       4.298626913485685E-003
   9.77466666666667       3.924574408350817E-003
   9.85200000000000       4.044296402326624E-003
   9.92933333333333       4.489081700016920E-003
   10.0066666666667       4.741287442801084E-003
   10.0840000000000       5.008297813543030E-003
   10.1613333333333       5.099474338857029E-003
   10.2386666666667       5.005930321069743E-003
   10.3160000000000       4.978249704913719E-003
   10.3933333333333       4.783161466533051E-003
   10.4706666666667       4.809877368998055E-003
   10.5480000000000       5.238019808783405E-003
   10.6253333333333       5.419246065580944E-003
   10.7026666666667       5.487586692576661E-003
   10.7800000000000       5.331212818705340E-003
   10.8573333333333       5.482417417347302E-003
   10.9346666666667       5.560042134521321E-003
   11.0120000000000       5.921051963470639E-003
   11.0893333333333       5.650554555063188E-003
   11.1666666666667       5.989535379808982E-003
   11.2440000000000       6.433572301584579E-003
   11.3213333333333       6.636180079880811E-003
   11.3986666666667       6.690403376657710E-003
   11.4760000000000       7.323443233894771E-003
   11.5533333333333       7.371343642688608E-003
   11.6306666666667       7.326666938562754E-003
   11.7080000000000       7.492743725161205E-003
   11.7853333333333       7.173033584020713E-003
   11.8626666666667       7.196808017667687E-003
   11.9400000000000       7.389772741744943E-003
   12.0173333333333       7.914735793424769E-003
   12.0946666666667       8.182146669947052E-003
   12.1720000000000       8.439195716592497E-003
   12.2493333333333       8.563378868486625E-003
   12.3266666666667       8.570727315976277E-003
   12.4040000000000       8.437144548480713E-003
   12.4813333333333       8.562246875522612E-003
   12.5586666666667       9.088371067691432E-003
   12.6360000000000       8.536466596545790E-003
   12.7133333333333       8.811054086220045E-003
   12.7906666666667       8.934369400898479E-003
   12.8680000000000       8.923070804338370E-003
   12.9453333333333       9.436529221875668E-003
   13.0226666666667       9.543871875565733E-003
   13.1000000000000       9.310908037937575E-003
   13.1773333333333       9.481160624325377E-003
   13.2546666666667       9.317695588624924E-003
   13.3320000000000       9.107198539224972E-003
   13.4093333333333       9.436907013868592E-003
   13.4866666666667       9.610978683935876E-003
   13.5640000000000       1.011958899742594E-002
   13.6413333333333       1.027438247172447E-002
   13.7186666666667       1.052033678572519E-002
   13.7960000000000       1.125206498357381E-002
   13.8733333333333       1.135999150462139E-002
   13.9506666666667       1.141592948549289E-002
   14.0280000000000       1.169788772753772E-002
   14.1053333333333       1.158729443967608E-002
   14.1826666666667       1.129627873583578E-002
   14.2600000000000       1.145910954395358E-002
   14.3373333333333       1.145447685936414E-002
   14.4146666666667       1.149027749307476E-002
   14.4920000000000       1.169715187969247E-002
   14.5693333333333       1.173043344973502E-002
   14.6466666666667       1.158866438845769E-002
   14.7240000000000       1.158188205311663E-002
   14.8013333333333       1.189490431660808E-002
   14.8786666666667       1.206152897333993E-002
   14.9560000000000       1.225234343510794E-002
   15.0333333333333       1.208854787971150E-002
   15.1106666666667       1.244322374483035E-002
   15.1880000000000       1.376742239178909E-002
   15.2653333333333       1.372733334684730E-002
   15.3426666666667       1.387168108692479E-002
   15.4200000000000       1.396871539609314E-002
   15.4973333333333       1.697307560044583E-002
